PSTAR: Stopping Powers and Range Tables for Protons

GOLD                                                                    

Kinetic  	Electron.	Nuclear  	Total    	
Energy   	Stp. Pow.	Stp. Pow.	Stp. Pow.	
MeV      	MeV cm2/g	MeV cm2/g	MeV cm2/g	

1.000E-03	1.476E+01	8.981E-01	1.565E+01	
1.500E-03	1.807E+01	9.183E-01	1.899E+01	
2.000E-03	2.087E+01	9.234E-01	2.179E+01	
2.500E-03	2.333E+01	9.217E-01	2.425E+01	
3.000E-03	2.556E+01	9.163E-01	2.648E+01	
4.000E-03	2.951E+01	9.002E-01	3.041E+01	
5.000E-03	3.300E+01	8.811E-01	3.388E+01	
6.000E-03	3.615E+01	8.611E-01	3.701E+01	
7.000E-03	3.904E+01	8.411E-01	3.988E+01	
8.000E-03	4.174E+01	8.216E-01	4.256E+01	
9.000E-03	4.427E+01	8.029E-01	4.507E+01	
1.000E-02	4.666E+01	7.849E-01	4.745E+01	
1.250E-02	5.151E+01	7.434E-01	5.226E+01	
1.500E-02	5.580E+01	7.067E-01	5.650E+01	
1.750E-02	5.966E+01	6.740E-01	6.033E+01	
2.000E-02	6.318E+01	6.447E-01	6.383E+01	
2.250E-02	6.643E+01	6.184E-01	6.705E+01	
2.500E-02	6.943E+01	5.946E-01	7.003E+01	
2.750E-02	7.223E+01	5.730E-01	7.280E+01	
3.000E-02	7.484E+01	5.532E-01	7.539E+01	
3.500E-02	7.958E+01	5.182E-01	8.010E+01	
4.000E-02	8.377E+01	4.882E-01	8.426E+01	
4.500E-02	8.750E+01	4.621E-01	8.796E+01	
5.000E-02	9.081E+01	4.392E-01	9.125E+01	
5.500E-02	9.377E+01	4.188E-01	9.419E+01	
6.000E-02	9.640E+01	4.006E-01	9.680E+01	
6.500E-02	9.874E+01	3.841E-01	9.912E+01	
7.000E-02	1.008E+02	3.692E-01	1.012E+02	
7.500E-02	1.026E+02	3.556E-01	1.030E+02	
8.000E-02	1.043E+02	3.431E-01	1.046E+02	
8.500E-02	1.057E+02	3.316E-01	1.060E+02	
9.000E-02	1.069E+02	3.210E-01	1.072E+02	
9.500E-02	1.080E+02	3.112E-01	1.083E+02	
1.000E-01	1.089E+02	3.020E-01	1.092E+02	
1.250E-01	1.115E+02	2.641E-01	1.118E+02	
1.500E-01	1.120E+02	2.357E-01	1.122E+02	
1.750E-01	1.112E+02	2.134E-01	1.114E+02	
2.000E-01	1.096E+02	1.955E-01	1.098E+02	
2.250E-01	1.076E+02	1.806E-01	1.078E+02	
2.500E-01	1.054E+02	1.681E-01	1.056E+02	
2.750E-01	1.032E+02	1.574E-01	1.034E+02	
3.000E-01	1.010E+02	1.481E-01	1.011E+02	
3.500E-01	9.633E+01	1.328E-01	9.646E+01	
4.000E-01	9.180E+01	1.206E-01	9.192E+01	
4.500E-01	8.770E+01	1.106E-01	8.781E+01	
5.000E-01	8.405E+01	1.024E-01	8.415E+01	
5.500E-01	8.083E+01	9.534E-02	8.093E+01	
6.000E-01	7.800E+01	8.930E-02	7.809E+01	
6.500E-01	7.547E+01	8.406E-02	7.555E+01	
7.000E-01	7.318E+01	7.945E-02	7.326E+01	
7.500E-01	7.111E+01	7.536E-02	7.118E+01	
8.000E-01	6.921E+01	7.171E-02	6.928E+01	
8.500E-01	6.746E+01	6.843E-02	6.753E+01	
9.000E-01	6.583E+01	6.546E-02	6.590E+01	
9.500E-01	6.432E+01	6.276E-02	6.439E+01	
1.000E+00	6.291E+01	6.030E-02	6.297E+01	
1.250E+00	5.698E+01	5.057E-02	5.703E+01	
1.500E+00	5.239E+01	4.373E-02	5.243E+01	
1.750E+00	4.868E+01	3.863E-02	4.872E+01	
2.000E+00	4.558E+01	3.467E-02	4.562E+01	
2.250E+00	4.295E+01	3.149E-02	4.298E+01	
2.500E+00	4.067E+01	2.889E-02	4.070E+01	
2.750E+00	3.868E+01	2.671E-02	3.871E+01	
3.000E+00	3.692E+01	2.486E-02	3.694E+01	
3.500E+00	3.392E+01	2.188E-02	3.394E+01	
4.000E+00	3.146E+01	1.957E-02	3.148E+01	
4.500E+00	2.940E+01	1.773E-02	2.942E+01	
5.000E+00	2.765E+01	1.623E-02	2.766E+01	
5.500E+00	2.612E+01	1.498E-02	2.614E+01	
6.000E+00	2.479E+01	1.392E-02	2.480E+01	
6.500E+00	2.360E+01	1.300E-02	2.362E+01	
7.000E+00	2.255E+01	1.221E-02	2.256E+01	
7.500E+00	2.160E+01	1.151E-02	2.161E+01	
8.000E+00	2.074E+01	1.089E-02	2.075E+01	
8.500E+00	1.996E+01	1.034E-02	1.997E+01	
9.000E+00	1.924E+01	9.849E-03	1.925E+01	
9.500E+00	1.859E+01	9.402E-03	1.860E+01	
1.000E+01	1.798E+01	8.996E-03	1.799E+01	
1.250E+01	1.553E+01	7.420E-03	1.554E+01	
1.500E+01	1.374E+01	6.335E-03	1.375E+01	
1.750E+01	1.237E+01	5.539E-03	1.238E+01	
2.000E+01	1.129E+01	4.930E-03	1.129E+01	
2.500E+01	9.661E+00	4.054E-03	9.665E+00	
2.750E+01	9.035E+00	3.728E-03	9.038E+00	
3.000E+01	8.496E+00	3.452E-03	8.499E+00	
3.500E+01	7.615E+00	3.013E-03	7.618E+00	
4.000E+01	6.924E+00	2.677E-03	6.926E+00	
4.500E+01	6.365E+00	2.411E-03	6.368E+00	
5.000E+01	5.904E+00	2.195E-03	5.906E+00	
5.500E+01	5.516E+00	2.016E-03	5.518E+00	
6.000E+01	5.185E+00	1.865E-03	5.187E+00	
6.500E+01	4.899E+00	1.736E-03	4.901E+00	
7.000E+01	4.649E+00	1.624E-03	4.651E+00	
7.500E+01	4.429E+00	1.527E-03	4.430E+00	
8.000E+01	4.233E+00	1.441E-03	4.234E+00	
8.500E+01	4.058E+00	1.364E-03	4.059E+00	
9.000E+01	3.900E+00	1.296E-03	3.901E+00	
9.500E+01	3.757E+00	1.234E-03	3.758E+00	
1.000E+02	3.627E+00	1.178E-03	3.628E+00	
1.250E+02	3.120E+00	9.626E-04	3.121E+00	
1.500E+02	2.769E+00	8.156E-04	2.770E+00	
1.750E+02	2.512E+00	7.087E-04	2.513E+00	
2.000E+02	2.315E+00	6.272E-04	2.316E+00	
2.250E+02	2.160E+00	5.631E-04	2.160E+00	
2.500E+02	2.034E+00	5.112E-04	2.034E+00	
2.750E+02	1.930E+00	4.683E-04	1.931E+00	
3.000E+02	1.843E+00	4.322E-04	1.844E+00	
3.500E+02	1.706E+00	3.750E-04	1.707E+00	
4.000E+02	1.603E+00	3.315E-04	1.604E+00	
4.500E+02	1.524E+00	2.972E-04	1.524E+00	
5.000E+02	1.461E+00	2.696E-04	1.461E+00	
5.500E+02	1.410E+00	2.468E-04	1.410E+00	
6.000E+02	1.368E+00	2.276E-04	1.368E+00	
6.500E+02	1.334E+00	2.113E-04	1.334E+00	
7.000E+02	1.305E+00	1.973E-04	1.305E+00	
7.500E+02	1.280E+00	1.850E-04	1.280E+00	
8.000E+02	1.259E+00	1.742E-04	1.259E+00	
8.500E+02	1.241E+00	1.647E-04	1.241E+00	
9.000E+02	1.226E+00	1.561E-04	1.226E+00	
9.500E+02	1.213E+00	1.485E-04	1.213E+00	
1.000E+03	1.201E+00	1.416E-04	1.201E+00	
1.500E+03	1.143E+00	9.703E-05	1.143E+00	
2.000E+03	1.131E+00	7.422E-05	1.131E+00	
2.500E+03	1.134E+00	6.029E-05	1.134E+00	
3.000E+03	1.143E+00	5.088E-05	1.143E+00	
4.000E+03	1.167E+00	3.893E-05	1.167E+00	
5.000E+03	1.191E+00	3.164E-05	1.192E+00	
6.000E+03	1.215E+00	2.671E-05	1.215E+00	
7.000E+03	1.236E+00	2.314E-05	1.236E+00	
8.000E+03	1.255E+00	2.044E-05	1.255E+00	
9.000E+03	1.272E+00	1.832E-05	1.272E+00	
1.000E+04	1.288E+00	1.661E-05	1.288E+00	
