PSTAR: Stopping Powers and Range Tables for Protons

COPPER                                                                  

Kinetic  	Electron.	Nuclear  	Total    	
Energy   	Stp. Pow.	Stp. Pow.	Stp. Pow.	
MeV      	MeV cm2/g	MeV cm2/g	MeV cm2/g	

1.000E-03	3.490E+01	4.408E+00	3.931E+01	
1.500E-03	4.274E+01	4.231E+00	4.697E+01	
2.000E-03	4.935E+01	4.049E+00	5.340E+01	
2.500E-03	5.518E+01	3.876E+00	5.906E+01	
3.000E-03	6.045E+01	3.718E+00	6.416E+01	
4.000E-03	6.980E+01	3.440E+00	7.324E+01	
5.000E-03	7.804E+01	3.207E+00	8.124E+01	
6.000E-03	8.548E+01	3.010E+00	8.849E+01	
7.000E-03	9.233E+01	2.840E+00	9.517E+01	
8.000E-03	9.871E+01	2.692E+00	1.014E+02	
9.000E-03	1.047E+02	2.561E+00	1.073E+02	
1.000E-02	1.104E+02	2.445E+00	1.128E+02	
1.250E-02	1.214E+02	2.204E+00	1.236E+02	
1.500E-02	1.309E+02	2.014E+00	1.329E+02	
1.750E-02	1.392E+02	1.859E+00	1.411E+02	
2.000E-02	1.466E+02	1.729E+00	1.484E+02	
2.250E-02	1.532E+02	1.620E+00	1.548E+02	
2.500E-02	1.590E+02	1.525E+00	1.606E+02	
2.750E-02	1.643E+02	1.442E+00	1.657E+02	
3.000E-02	1.689E+02	1.369E+00	1.703E+02	
3.500E-02	1.769E+02	1.246E+00	1.781E+02	
4.000E-02	1.832E+02	1.146E+00	1.844E+02	
4.500E-02	1.884E+02	1.062E+00	1.894E+02	
5.000E-02	1.925E+02	9.917E-01	1.935E+02	
5.500E-02	1.959E+02	9.309E-01	1.968E+02	
6.000E-02	1.987E+02	8.779E-01	1.996E+02	
6.500E-02	2.010E+02	8.314E-01	2.018E+02	
7.000E-02	2.028E+02	7.900E-01	2.036E+02	
7.500E-02	2.044E+02	7.531E-01	2.051E+02	
8.000E-02	2.056E+02	7.198E-01	2.063E+02	
8.500E-02	2.067E+02	6.896E-01	2.073E+02	
9.000E-02	2.075E+02	6.622E-01	2.082E+02	
9.500E-02	2.082E+02	6.371E-01	2.088E+02	
1.000E-01	2.087E+02	6.140E-01	2.093E+02	
1.250E-01	2.099E+02	5.217E-01	2.104E+02	
1.500E-01	2.092E+02	4.556E-01	2.097E+02	
1.750E-01	2.075E+02	4.055E-01	2.079E+02	
2.000E-01	2.051E+02	3.662E-01	2.055E+02	
2.250E-01	2.023E+02	3.344E-01	2.026E+02	
2.500E-01	1.991E+02	3.081E-01	1.994E+02	
2.750E-01	1.958E+02	2.860E-01	1.961E+02	
3.000E-01	1.923E+02	2.671E-01	1.926E+02	
3.500E-01	1.854E+02	2.364E-01	1.856E+02	
4.000E-01	1.786E+02	2.125E-01	1.788E+02	
4.500E-01	1.720E+02	1.933E-01	1.722E+02	
5.000E-01	1.658E+02	1.775E-01	1.660E+02	
5.500E-01	1.596E+02	1.643E-01	1.598E+02	
6.000E-01	1.536E+02	1.530E-01	1.538E+02	
6.500E-01	1.480E+02	1.433E-01	1.481E+02	
7.000E-01	1.427E+02	1.348E-01	1.428E+02	
7.500E-01	1.378E+02	1.274E-01	1.379E+02	
8.000E-01	1.333E+02	1.208E-01	1.334E+02	
8.500E-01	1.291E+02	1.149E-01	1.292E+02	
9.000E-01	1.252E+02	1.095E-01	1.253E+02	
9.500E-01	1.217E+02	1.047E-01	1.218E+02	
1.000E+00	1.183E+02	1.003E-01	1.184E+02	
1.250E+00	1.047E+02	8.324E-02	1.048E+02	
1.500E+00	9.443E+01	7.139E-02	9.450E+01	
1.750E+00	8.645E+01	6.265E-02	8.652E+01	
2.000E+00	7.987E+01	5.593E-02	7.992E+01	
2.250E+00	7.425E+01	5.058E-02	7.430E+01	
2.500E+00	6.955E+01	4.622E-02	6.960E+01	
2.750E+00	6.552E+01	4.259E-02	6.556E+01	
3.000E+00	6.196E+01	3.950E-02	6.199E+01	
3.500E+00	5.607E+01	3.457E-02	5.610E+01	
4.000E+00	5.133E+01	3.078E-02	5.136E+01	
4.500E+00	4.743E+01	2.778E-02	4.746E+01	
5.000E+00	4.416E+01	2.534E-02	4.418E+01	
5.500E+00	4.136E+01	2.331E-02	4.139E+01	
6.000E+00	3.894E+01	2.159E-02	3.897E+01	
6.500E+00	3.683E+01	2.013E-02	3.685E+01	
7.000E+00	3.496E+01	1.886E-02	3.498E+01	
7.500E+00	3.329E+01	1.774E-02	3.331E+01	
8.000E+00	3.180E+01	1.676E-02	3.181E+01	
8.500E+00	3.045E+01	1.588E-02	3.046E+01	
9.000E+00	2.922E+01	1.510E-02	2.924E+01	
9.500E+00	2.810E+01	1.439E-02	2.812E+01	
1.000E+01	2.708E+01	1.375E-02	2.709E+01	
1.250E+01	2.299E+01	1.127E-02	2.301E+01	
1.500E+01	2.009E+01	9.579E-03	2.010E+01	
1.750E+01	1.790E+01	8.341E-03	1.791E+01	
2.000E+01	1.619E+01	7.396E-03	1.620E+01	
2.500E+01	1.368E+01	6.045E-03	1.368E+01	
2.750E+01	1.272E+01	5.545E-03	1.273E+01	
3.000E+01	1.191E+01	5.123E-03	1.191E+01	
3.500E+01	1.059E+01	4.452E-03	1.060E+01	
4.000E+01	9.573E+00	3.941E-03	9.577E+00	
4.500E+01	8.756E+00	3.538E-03	8.760E+00	
5.000E+01	8.086E+00	3.212E-03	8.090E+00	
5.500E+01	7.527E+00	2.942E-03	7.530E+00	
6.000E+01	7.052E+00	2.716E-03	7.055E+00	
6.500E+01	6.644E+00	2.522E-03	6.646E+00	
7.000E+01	6.288E+00	2.355E-03	6.291E+00	
7.500E+01	5.976E+00	2.210E-03	5.979E+00	
8.000E+01	5.700E+00	2.081E-03	5.702E+00	
8.500E+01	5.453E+00	1.968E-03	5.455E+00	
9.000E+01	5.232E+00	1.866E-03	5.234E+00	
9.500E+01	5.032E+00	1.774E-03	5.034E+00	
1.000E+02	4.850E+00	1.692E-03	4.852E+00	
1.250E+02	4.146E+00	1.374E-03	4.147E+00	
1.500E+02	3.663E+00	1.159E-03	3.664E+00	
1.750E+02	3.310E+00	1.003E-03	3.311E+00	
2.000E+02	3.041E+00	8.852E-04	3.042E+00	
2.250E+02	2.829E+00	7.926E-04	2.830E+00	
2.500E+02	2.658E+00	7.179E-04	2.659E+00	
2.750E+02	2.518E+00	6.564E-04	2.518E+00	
3.000E+02	2.400E+00	6.048E-04	2.400E+00	
3.500E+02	2.214E+00	5.231E-04	2.214E+00	
4.000E+02	2.074E+00	4.613E-04	2.074E+00	
4.500E+02	1.966E+00	4.129E-04	1.966E+00	
5.000E+02	1.880E+00	3.739E-04	1.880E+00	
5.500E+02	1.810E+00	3.418E-04	1.811E+00	
6.000E+02	1.753E+00	3.149E-04	1.754E+00	
6.500E+02	1.706E+00	2.920E-04	1.706E+00	
7.000E+02	1.666E+00	2.723E-04	1.666E+00	
7.500E+02	1.632E+00	2.552E-04	1.632E+00	
8.000E+02	1.603E+00	2.401E-04	1.603E+00	
8.500E+02	1.578E+00	2.268E-04	1.578E+00	
9.000E+02	1.556E+00	2.149E-04	1.556E+00	
9.500E+02	1.537E+00	2.043E-04	1.538E+00	
1.000E+03	1.521E+00	1.947E-04	1.521E+00	
1.500E+03	1.433E+00	1.330E-04	1.433E+00	
2.000E+03	1.407E+00	1.015E-04	1.407E+00	
2.500E+03	1.404E+00	8.235E-05	1.404E+00	
3.000E+03	1.409E+00	6.943E-05	1.409E+00	
4.000E+03	1.430E+00	5.306E-05	1.430E+00	
5.000E+03	1.454E+00	4.307E-05	1.454E+00	
6.000E+03	1.476E+00	3.633E-05	1.476E+00	
7.000E+03	1.498E+00	3.146E-05	1.498E+00	
8.000E+03	1.517E+00	2.778E-05	1.517E+00	
9.000E+03	1.535E+00	2.489E-05	1.535E+00	
1.000E+04	1.552E+00	2.256E-05	1.552E+00	
