PSTAR: Stopping Powers and Range Tables for Protons

ARGON                                                                   

Kinetic  	Electron.	Nuclear  	Total    	
Energy   	Stp. Pow.	Stp. Pow.	Stp. Pow.	
MeV      	MeV cm2/g	MeV cm2/g	MeV cm2/g	

1.000E-03	8.608E+01	7.470E+00	9.355E+01	
1.500E-03	1.054E+02	6.891E+00	1.123E+02	
2.000E-03	1.217E+02	6.398E+00	1.281E+02	
2.500E-03	1.361E+02	5.980E+00	1.421E+02	
3.000E-03	1.491E+02	5.623E+00	1.547E+02	
4.000E-03	1.722E+02	5.045E+00	1.772E+02	
5.000E-03	1.925E+02	4.594E+00	1.971E+02	
6.000E-03	2.109E+02	4.231E+00	2.151E+02	
7.000E-03	2.277E+02	3.931E+00	2.317E+02	
8.000E-03	2.435E+02	3.678E+00	2.472E+02	
9.000E-03	2.582E+02	3.460E+00	2.617E+02	
1.000E-02	2.722E+02	3.271E+00	2.755E+02	
1.250E-02	2.997E+02	2.890E+00	3.026E+02	
1.500E-02	3.235E+02	2.599E+00	3.261E+02	
1.750E-02	3.445E+02	2.368E+00	3.469E+02	
2.000E-02	3.633E+02	2.180E+00	3.655E+02	
2.250E-02	3.802E+02	2.023E+00	3.822E+02	
2.500E-02	3.953E+02	1.890E+00	3.972E+02	
2.750E-02	4.090E+02	1.775E+00	4.108E+02	
3.000E-02	4.214E+02	1.675E+00	4.230E+02	
3.500E-02	4.425E+02	1.509E+00	4.440E+02	
4.000E-02	4.594E+02	1.376E+00	4.608E+02	
4.500E-02	4.728E+02	1.266E+00	4.741E+02	
5.000E-02	4.831E+02	1.175E+00	4.843E+02	
5.500E-02	4.907E+02	1.097E+00	4.918E+02	
6.000E-02	4.960E+02	1.030E+00	4.970E+02	
6.500E-02	4.992E+02	9.711E-01	5.002E+02	
7.000E-02	5.007E+02	9.194E-01	5.017E+02	
7.500E-02	5.008E+02	8.734E-01	5.016E+02	
8.000E-02	4.995E+02	8.323E-01	5.003E+02	
8.500E-02	4.972E+02	7.952E-01	4.980E+02	
9.000E-02	4.940E+02	7.616E-01	4.947E+02	
9.500E-02	4.900E+02	7.310E-01	4.907E+02	
1.000E-01	4.855E+02	7.029E-01	4.862E+02	
1.250E-01	4.574E+02	5.920E-01	4.580E+02	
1.500E-01	4.267E+02	5.134E-01	4.272E+02	
1.750E-01	3.977E+02	4.546E-01	3.982E+02	
2.000E-01	3.719E+02	4.088E-01	3.724E+02	
2.250E-01	3.495E+02	3.719E-01	3.499E+02	
2.500E-01	3.301E+02	3.417E-01	3.304E+02	
2.750E-01	3.132E+02	3.163E-01	3.135E+02	
3.000E-01	2.985E+02	2.947E-01	2.988E+02	
3.500E-01	2.742E+02	2.598E-01	2.745E+02	
4.000E-01	2.549E+02	2.328E-01	2.551E+02	
4.500E-01	2.390E+02	2.112E-01	2.392E+02	
5.000E-01	2.256E+02	1.935E-01	2.258E+02	
5.500E-01	2.144E+02	1.787E-01	2.146E+02	
6.000E-01	2.047E+02	1.662E-01	2.048E+02	
6.500E-01	1.961E+02	1.554E-01	1.962E+02	
7.000E-01	1.884E+02	1.460E-01	1.885E+02	
7.500E-01	1.813E+02	1.378E-01	1.815E+02	
8.000E-01	1.749E+02	1.304E-01	1.750E+02	
8.500E-01	1.689E+02	1.239E-01	1.691E+02	
9.000E-01	1.634E+02	1.181E-01	1.635E+02	
9.500E-01	1.582E+02	1.128E-01	1.583E+02	
1.000E+00	1.533E+02	1.080E-01	1.534E+02	
1.250E+00	1.330E+02	8.925E-02	1.331E+02	
1.500E+00	1.182E+02	7.633E-02	1.183E+02	
1.750E+00	1.068E+02	6.682E-02	1.069E+02	
2.000E+00	9.772E+01	5.950E-02	9.778E+01	
2.250E+00	9.027E+01	5.370E-02	9.032E+01	
2.500E+00	8.401E+01	4.898E-02	8.406E+01	
2.750E+00	7.867E+01	4.505E-02	7.872E+01	
3.000E+00	7.405E+01	4.174E-02	7.409E+01	
3.500E+00	6.643E+01	3.645E-02	6.647E+01	
4.000E+00	6.039E+01	3.239E-02	6.043E+01	
4.500E+00	5.547E+01	2.919E-02	5.550E+01	
5.000E+00	5.138E+01	2.658E-02	5.141E+01	
5.500E+00	4.791E+01	2.442E-02	4.793E+01	
6.000E+00	4.493E+01	2.259E-02	4.495E+01	
6.500E+00	4.233E+01	2.104E-02	4.236E+01	
7.000E+00	4.006E+01	1.969E-02	4.008E+01	
7.500E+00	3.804E+01	1.850E-02	3.806E+01	
8.000E+00	3.624E+01	1.746E-02	3.626E+01	
8.500E+00	3.462E+01	1.654E-02	3.463E+01	
9.000E+00	3.315E+01	1.571E-02	3.317E+01	
9.500E+00	3.182E+01	1.496E-02	3.183E+01	
1.000E+01	3.060E+01	1.428E-02	3.061E+01	
1.250E+01	2.579E+01	1.167E-02	2.581E+01	
1.500E+01	2.241E+01	9.887E-03	2.242E+01	
1.750E+01	1.989E+01	8.590E-03	1.989E+01	
2.000E+01	1.792E+01	7.601E-03	1.793E+01	
2.500E+01	1.506E+01	6.192E-03	1.507E+01	
2.750E+01	1.398E+01	5.671E-03	1.399E+01	
3.000E+01	1.306E+01	5.233E-03	1.307E+01	
3.500E+01	1.158E+01	4.537E-03	1.159E+01	
4.000E+01	1.044E+01	4.008E-03	1.044E+01	
4.500E+01	9.525E+00	3.592E-03	9.529E+00	
5.000E+01	8.780E+00	3.256E-03	8.783E+00	
5.500E+01	8.159E+00	2.979E-03	8.162E+00	
6.000E+01	7.633E+00	2.746E-03	7.636E+00	
6.500E+01	7.182E+00	2.548E-03	7.184E+00	
7.000E+01	6.790E+00	2.377E-03	6.792E+00	
7.500E+01	6.446E+00	2.228E-03	6.449E+00	
8.000E+01	6.142E+00	2.097E-03	6.145E+00	
8.500E+01	5.872E+00	1.981E-03	5.874E+00	
9.000E+01	5.629E+00	1.878E-03	5.631E+00	
9.500E+01	5.410E+00	1.785E-03	5.412E+00	
1.000E+02	5.212E+00	1.701E-03	5.213E+00	
1.250E+02	4.443E+00	1.378E-03	4.445E+00	
1.500E+02	3.918E+00	1.161E-03	3.919E+00	
1.750E+02	3.536E+00	1.003E-03	3.537E+00	
2.000E+02	3.246E+00	8.844E-04	3.246E+00	
2.250E+02	3.017E+00	7.912E-04	3.018E+00	
2.500E+02	2.834E+00	7.162E-04	2.834E+00	
2.750E+02	2.683E+00	6.545E-04	2.683E+00	
3.000E+02	2.556E+00	6.027E-04	2.557E+00	
3.500E+02	2.358E+00	5.210E-04	2.358E+00	
4.000E+02	2.210E+00	4.591E-04	2.210E+00	
4.500E+02	2.095E+00	4.107E-04	2.095E+00	
5.000E+02	2.004E+00	3.718E-04	2.004E+00	
5.500E+02	1.931E+00	3.397E-04	1.931E+00	
6.000E+02	1.871E+00	3.129E-04	1.871E+00	
6.500E+02	1.821E+00	2.901E-04	1.821E+00	
7.000E+02	1.779E+00	2.705E-04	1.779E+00	
7.500E+02	1.744E+00	2.534E-04	1.744E+00	
8.000E+02	1.713E+00	2.384E-04	1.714E+00	
8.500E+02	1.688E+00	2.252E-04	1.688E+00	
9.000E+02	1.665E+00	2.133E-04	1.665E+00	
9.500E+02	1.646E+00	2.027E-04	1.646E+00	
1.000E+03	1.629E+00	1.932E-04	1.629E+00	
1.500E+03	1.542E+00	1.318E-04	1.542E+00	
2.000E+03	1.521E+00	1.006E-04	1.521E+00	
2.500E+03	1.523E+00	8.159E-05	1.523E+00	
3.000E+03	1.535E+00	6.877E-05	1.535E+00	
4.000E+03	1.567E+00	5.253E-05	1.567E+00	
5.000E+03	1.601E+00	4.264E-05	1.601E+00	
6.000E+03	1.634E+00	3.596E-05	1.634E+00	
7.000E+03	1.665E+00	3.113E-05	1.665E+00	
8.000E+03	1.693E+00	2.748E-05	1.693E+00	
9.000E+03	1.719E+00	2.462E-05	1.719E+00	
1.000E+04	1.743E+00	2.231E-05	1.743E+00	
