PSTAR: Stopping Powers and Range Tables for Protons

SILVER                                                                  

Kinetic  	Electron.	Nuclear  	Total    	
Energy   	Stp. Pow.	Stp. Pow.	Stp. Pow.	
MeV      	MeV cm2/g	MeV cm2/g	MeV cm2/g	

1.000E-03	2.973E+01	2.169E+00	3.190E+01	
1.500E-03	3.641E+01	2.153E+00	3.857E+01	
2.000E-03	4.205E+01	2.115E+00	4.416E+01	
2.500E-03	4.701E+01	2.071E+00	4.908E+01	
3.000E-03	5.150E+01	2.024E+00	5.352E+01	
4.000E-03	5.946E+01	1.931E+00	6.140E+01	
5.000E-03	6.648E+01	1.845E+00	6.833E+01	
6.000E-03	7.283E+01	1.767E+00	7.460E+01	
7.000E-03	7.866E+01	1.695E+00	8.036E+01	
8.000E-03	8.409E+01	1.630E+00	8.573E+01	
9.000E-03	8.920E+01	1.571E+00	9.077E+01	
1.000E-02	9.402E+01	1.517E+00	9.554E+01	
1.250E-02	1.037E+02	1.399E+00	1.051E+02	
1.500E-02	1.121E+02	1.302E+00	1.134E+02	
1.750E-02	1.197E+02	1.220E+00	1.209E+02	
2.000E-02	1.266E+02	1.149E+00	1.277E+02	
2.250E-02	1.328E+02	1.088E+00	1.339E+02	
2.500E-02	1.385E+02	1.034E+00	1.395E+02	
2.750E-02	1.437E+02	9.861E-01	1.447E+02	
3.000E-02	1.485E+02	9.432E-01	1.495E+02	
3.500E-02	1.571E+02	8.695E-01	1.579E+02	
4.000E-02	1.643E+02	8.081E-01	1.651E+02	
4.500E-02	1.705E+02	7.561E-01	1.713E+02	
5.000E-02	1.757E+02	7.113E-01	1.764E+02	
5.500E-02	1.801E+02	6.723E-01	1.808E+02	
6.000E-02	1.837E+02	6.379E-01	1.844E+02	
6.500E-02	1.867E+02	6.074E-01	1.873E+02	
7.000E-02	1.891E+02	5.800E-01	1.897E+02	
7.500E-02	1.911E+02	5.553E-01	1.916E+02	
8.000E-02	1.925E+02	5.329E-01	1.931E+02	
8.500E-02	1.936E+02	5.125E-01	1.941E+02	
9.000E-02	1.944E+02	4.938E-01	1.949E+02	
9.500E-02	1.948E+02	4.765E-01	1.953E+02	
1.000E-01	1.950E+02	4.606E-01	1.955E+02	
1.250E-01	1.934E+02	3.961E-01	1.938E+02	
1.500E-01	1.893E+02	3.490E-01	1.897E+02	
1.750E-01	1.844E+02	3.129E-01	1.847E+02	
2.000E-01	1.792E+02	2.842E-01	1.795E+02	
2.250E-01	1.741E+02	2.608E-01	1.744E+02	
2.500E-01	1.693E+02	2.413E-01	1.696E+02	
2.750E-01	1.648E+02	2.247E-01	1.650E+02	
3.000E-01	1.605E+02	2.105E-01	1.607E+02	
3.500E-01	1.527E+02	1.873E-01	1.529E+02	
4.000E-01	1.457E+02	1.691E-01	1.459E+02	
4.500E-01	1.395E+02	1.543E-01	1.396E+02	
5.000E-01	1.338E+02	1.422E-01	1.339E+02	
5.500E-01	1.286E+02	1.319E-01	1.288E+02	
6.000E-01	1.239E+02	1.232E-01	1.240E+02	
6.500E-01	1.195E+02	1.156E-01	1.196E+02	
7.000E-01	1.154E+02	1.090E-01	1.156E+02	
7.500E-01	1.117E+02	1.031E-01	1.118E+02	
8.000E-01	1.081E+02	9.791E-02	1.082E+02	
8.500E-01	1.048E+02	9.324E-02	1.049E+02	
9.000E-01	1.017E+02	8.903E-02	1.018E+02	
9.500E-01	9.874E+01	8.522E-02	9.882E+01	
1.000E+00	9.598E+01	8.175E-02	9.606E+01	
1.250E+00	8.449E+01	6.813E-02	8.456E+01	
1.500E+00	7.592E+01	5.862E-02	7.598E+01	
1.750E+00	6.930E+01	5.159E-02	6.935E+01	
2.000E+00	6.405E+01	4.616E-02	6.409E+01	
2.250E+00	5.977E+01	4.182E-02	5.981E+01	
2.500E+00	5.618E+01	3.828E-02	5.622E+01	
2.750E+00	5.307E+01	3.532E-02	5.311E+01	
3.000E+00	5.037E+01	3.282E-02	5.041E+01	
3.500E+00	4.586E+01	2.880E-02	4.589E+01	
4.000E+00	4.221E+01	2.570E-02	4.224E+01	
4.500E+00	3.919E+01	2.324E-02	3.921E+01	
5.000E+00	3.666E+01	2.123E-02	3.668E+01	
5.500E+00	3.447E+01	1.955E-02	3.449E+01	
6.000E+00	3.256E+01	1.814E-02	3.258E+01	
6.500E+00	3.088E+01	1.692E-02	3.089E+01	
7.000E+00	2.937E+01	1.587E-02	2.939E+01	
7.500E+00	2.805E+01	1.495E-02	2.807E+01	
8.000E+00	2.685E+01	1.413E-02	2.687E+01	
8.500E+00	2.577E+01	1.340E-02	2.578E+01	
9.000E+00	2.478E+01	1.275E-02	2.479E+01	
9.500E+00	2.387E+01	1.216E-02	2.388E+01	
1.000E+01	2.304E+01	1.163E-02	2.305E+01	
1.250E+01	1.971E+01	9.563E-03	1.972E+01	
1.500E+01	1.731E+01	8.144E-03	1.732E+01	
1.750E+01	1.550E+01	7.107E-03	1.550E+01	
2.000E+01	1.407E+01	6.313E-03	1.407E+01	
2.500E+01	1.195E+01	5.176E-03	1.195E+01	
2.750E+01	1.114E+01	4.754E-03	1.114E+01	
3.000E+01	1.045E+01	4.398E-03	1.045E+01	
3.500E+01	9.321E+00	3.830E-03	9.325E+00	
4.000E+01	8.444E+00	3.397E-03	8.447E+00	
4.500E+01	7.739E+00	3.054E-03	7.742E+00	
5.000E+01	7.160E+00	2.777E-03	7.163E+00	
5.500E+01	6.675E+00	2.547E-03	6.677E+00	
6.000E+01	6.262E+00	2.354E-03	6.264E+00	
6.500E+01	5.906E+00	2.189E-03	5.908E+00	
7.000E+01	5.596E+00	2.046E-03	5.598E+00	
7.500E+01	5.323E+00	1.921E-03	5.325E+00	
8.000E+01	5.081E+00	1.812E-03	5.083E+00	
8.500E+01	4.865E+00	1.714E-03	4.867E+00	
9.000E+01	4.671E+00	1.627E-03	4.672E+00	
9.500E+01	4.495E+00	1.548E-03	4.497E+00	
1.000E+02	4.336E+00	1.477E-03	4.337E+00	
1.250E+02	3.715E+00	1.203E-03	3.716E+00	
1.500E+02	3.288E+00	1.017E-03	3.289E+00	
1.750E+02	2.975E+00	8.819E-04	2.976E+00	
2.000E+02	2.736E+00	7.793E-04	2.737E+00	
2.250E+02	2.548E+00	6.986E-04	2.549E+00	
2.500E+02	2.396E+00	6.334E-04	2.397E+00	
2.750E+02	2.271E+00	5.796E-04	2.271E+00	
3.000E+02	2.166E+00	5.345E-04	2.166E+00	
3.500E+02	2.000E+00	4.629E-04	2.001E+00	
4.000E+02	1.876E+00	4.086E-04	1.877E+00	
4.500E+02	1.780E+00	3.660E-04	1.781E+00	
5.000E+02	1.704E+00	3.317E-04	1.705E+00	
5.500E+02	1.643E+00	3.034E-04	1.643E+00	
6.000E+02	1.592E+00	2.796E-04	1.593E+00	
6.500E+02	1.551E+00	2.594E-04	1.551E+00	
7.000E+02	1.515E+00	2.420E-04	1.516E+00	
7.500E+02	1.485E+00	2.269E-04	1.486E+00	
8.000E+02	1.460E+00	2.136E-04	1.460E+00	
8.500E+02	1.438E+00	2.018E-04	1.438E+00	
9.000E+02	1.419E+00	1.912E-04	1.419E+00	
9.500E+02	1.403E+00	1.818E-04	1.403E+00	
1.000E+03	1.389E+00	1.733E-04	1.389E+00	
1.500E+03	1.314E+00	1.185E-04	1.315E+00	
2.000E+03	1.296E+00	9.054E-05	1.296E+00	
2.500E+03	1.296E+00	7.349E-05	1.296E+00	
3.000E+03	1.305E+00	6.199E-05	1.305E+00	
4.000E+03	1.329E+00	4.739E-05	1.329E+00	
5.000E+03	1.355E+00	3.849E-05	1.355E+00	
6.000E+03	1.379E+00	3.247E-05	1.379E+00	
7.000E+03	1.402E+00	2.813E-05	1.402E+00	
8.000E+03	1.423E+00	2.484E-05	1.423E+00	
9.000E+03	1.442E+00	2.226E-05	1.442E+00	
1.000E+04	1.459E+00	2.018E-05	1.459E+00	
