PSTAR: Stopping Powers and Range Tables for Protons

TUNGSTEN                                                                

Kinetic  	Electron.	Nuclear  	Total    	
Energy   	Stp. Pow.	Stp. Pow.	Stp. Pow.	
MeV      	MeV cm2/g	MeV cm2/g	MeV cm2/g	

1.000E-03	1.497E+01	9.926E-01	1.596E+01	
1.500E-03	1.834E+01	1.011E+00	1.935E+01	
2.000E-03	2.117E+01	1.014E+00	2.219E+01	
2.500E-03	2.367E+01	1.010E+00	2.468E+01	
3.000E-03	2.593E+01	1.002E+00	2.693E+01	
4.000E-03	2.994E+01	9.814E-01	3.092E+01	
5.000E-03	3.347E+01	9.579E-01	3.443E+01	
6.000E-03	3.667E+01	9.338E-01	3.760E+01	
7.000E-03	3.961E+01	9.102E-01	4.052E+01	
8.000E-03	4.234E+01	8.874E-01	4.323E+01	
9.000E-03	4.491E+01	8.657E-01	4.578E+01	
1.000E-02	4.734E+01	8.450E-01	4.819E+01	
1.250E-02	5.230E+01	7.977E-01	5.310E+01	
1.500E-02	5.670E+01	7.562E-01	5.746E+01	
1.750E-02	6.068E+01	7.195E-01	6.140E+01	
2.000E-02	6.433E+01	6.869E-01	6.502E+01	
2.250E-02	6.770E+01	6.578E-01	6.836E+01	
2.500E-02	7.084E+01	6.315E-01	7.148E+01	
2.750E-02	7.378E+01	6.077E-01	7.439E+01	
3.000E-02	7.655E+01	5.859E-01	7.713E+01	
3.500E-02	8.161E+01	5.477E-01	8.216E+01	
4.000E-02	8.615E+01	5.151E-01	8.667E+01	
4.500E-02	9.024E+01	4.868E-01	9.073E+01	
5.000E-02	9.395E+01	4.620E-01	9.441E+01	
5.500E-02	9.730E+01	4.400E-01	9.774E+01	
6.000E-02	1.003E+02	4.204E-01	1.008E+02	
6.500E-02	1.031E+02	4.028E-01	1.035E+02	
7.000E-02	1.056E+02	3.868E-01	1.060E+02	
7.500E-02	1.078E+02	3.722E-01	1.082E+02	
8.000E-02	1.099E+02	3.589E-01	1.102E+02	
8.500E-02	1.117E+02	3.467E-01	1.120E+02	
9.000E-02	1.133E+02	3.353E-01	1.136E+02	
9.500E-02	1.147E+02	3.248E-01	1.150E+02	
1.000E-01	1.160E+02	3.151E-01	1.163E+02	
1.250E-01	1.200E+02	2.749E-01	1.203E+02	
1.500E-01	1.212E+02	2.449E-01	1.214E+02	
1.750E-01	1.205E+02	2.215E-01	1.207E+02	
2.000E-01	1.185E+02	2.026E-01	1.187E+02	
2.250E-01	1.159E+02	1.870E-01	1.161E+02	
2.500E-01	1.129E+02	1.739E-01	1.131E+02	
2.750E-01	1.098E+02	1.627E-01	1.100E+02	
3.000E-01	1.067E+02	1.530E-01	1.069E+02	
3.500E-01	1.002E+02	1.370E-01	1.003E+02	
4.000E-01	9.414E+01	1.243E-01	9.426E+01	
4.500E-01	8.908E+01	1.140E-01	8.919E+01	
5.000E-01	8.500E+01	1.054E-01	8.510E+01	
5.500E-01	8.168E+01	9.811E-02	8.178E+01	
6.000E-01	7.878E+01	9.186E-02	7.887E+01	
6.500E-01	7.620E+01	8.642E-02	7.629E+01	
7.000E-01	7.388E+01	8.165E-02	7.396E+01	
7.500E-01	7.178E+01	7.743E-02	7.186E+01	
8.000E-01	6.986E+01	7.365E-02	6.993E+01	
8.500E-01	6.809E+01	7.026E-02	6.816E+01	
9.000E-01	6.645E+01	6.720E-02	6.652E+01	
9.500E-01	6.493E+01	6.441E-02	6.499E+01	
1.000E+00	6.350E+01	6.187E-02	6.356E+01	
1.250E+00	5.752E+01	5.184E-02	5.758E+01	
1.500E+00	5.290E+01	4.480E-02	5.294E+01	
1.750E+00	4.915E+01	3.955E-02	4.919E+01	
2.000E+00	4.604E+01	3.548E-02	4.607E+01	
2.250E+00	4.338E+01	3.222E-02	4.342E+01	
2.500E+00	4.109E+01	2.955E-02	4.112E+01	
2.750E+00	3.908E+01	2.731E-02	3.911E+01	
3.000E+00	3.731E+01	2.541E-02	3.733E+01	
3.500E+00	3.429E+01	2.235E-02	3.431E+01	
4.000E+00	3.181E+01	1.999E-02	3.183E+01	
4.500E+00	2.973E+01	1.811E-02	2.975E+01	
5.000E+00	2.795E+01	1.657E-02	2.797E+01	
5.500E+00	2.641E+01	1.529E-02	2.643E+01	
6.000E+00	2.506E+01	1.420E-02	2.508E+01	
6.500E+00	2.387E+01	1.327E-02	2.388E+01	
7.000E+00	2.280E+01	1.246E-02	2.281E+01	
7.500E+00	2.184E+01	1.174E-02	2.185E+01	
8.000E+00	2.097E+01	1.111E-02	2.098E+01	
8.500E+00	2.018E+01	1.055E-02	2.019E+01	
9.000E+00	1.946E+01	1.004E-02	1.947E+01	
9.500E+00	1.879E+01	9.584E-03	1.880E+01	
1.000E+01	1.818E+01	9.170E-03	1.818E+01	
1.250E+01	1.569E+01	7.560E-03	1.570E+01	
1.500E+01	1.388E+01	6.453E-03	1.389E+01	
1.750E+01	1.250E+01	5.641E-03	1.250E+01	
2.000E+01	1.140E+01	5.019E-03	1.140E+01	
2.500E+01	9.751E+00	4.125E-03	9.755E+00	
2.750E+01	9.121E+00	3.793E-03	9.125E+00	
3.000E+01	8.581E+00	3.513E-03	8.585E+00	
3.500E+01	7.701E+00	3.065E-03	7.704E+00	
4.000E+01	7.012E+00	2.722E-03	7.015E+00	
4.500E+01	6.455E+00	2.451E-03	6.458E+00	
5.000E+01	5.995E+00	2.231E-03	5.997E+00	
5.500E+01	5.606E+00	2.049E-03	5.609E+00	
6.000E+01	5.275E+00	1.895E-03	5.276E+00	
6.500E+01	4.987E+00	1.764E-03	4.989E+00	
7.000E+01	4.735E+00	1.650E-03	4.737E+00	
7.500E+01	4.512E+00	1.551E-03	4.514E+00	
8.000E+01	4.314E+00	1.464E-03	4.316E+00	
8.500E+01	4.136E+00	1.386E-03	4.138E+00	
9.000E+01	3.976E+00	1.316E-03	3.977E+00	
9.500E+01	3.830E+00	1.253E-03	3.831E+00	
1.000E+02	3.697E+00	1.196E-03	3.698E+00	
1.250E+02	3.178E+00	9.772E-04	3.179E+00	
1.500E+02	2.820E+00	8.277E-04	2.821E+00	
1.750E+02	2.557E+00	7.190E-04	2.558E+00	
2.000E+02	2.356E+00	6.363E-04	2.357E+00	
2.250E+02	2.198E+00	5.711E-04	2.198E+00	
2.500E+02	2.070E+00	5.184E-04	2.070E+00	
2.750E+02	1.964E+00	4.748E-04	1.965E+00	
3.000E+02	1.876E+00	4.382E-04	1.876E+00	
3.500E+02	1.736E+00	3.801E-04	1.736E+00	
4.000E+02	1.631E+00	3.359E-04	1.631E+00	
4.500E+02	1.550E+00	3.012E-04	1.550E+00	
5.000E+02	1.486E+00	2.731E-04	1.486E+00	
5.500E+02	1.434E+00	2.500E-04	1.434E+00	
6.000E+02	1.391E+00	2.306E-04	1.391E+00	
6.500E+02	1.356E+00	2.140E-04	1.356E+00	
7.000E+02	1.326E+00	1.998E-04	1.326E+00	
7.500E+02	1.301E+00	1.874E-04	1.301E+00	
8.000E+02	1.279E+00	1.764E-04	1.279E+00	
8.500E+02	1.261E+00	1.667E-04	1.261E+00	
9.000E+02	1.245E+00	1.581E-04	1.245E+00	
9.500E+02	1.231E+00	1.503E-04	1.231E+00	
1.000E+03	1.219E+00	1.433E-04	1.219E+00	
1.500E+03	1.157E+00	9.821E-05	1.157E+00	
2.000E+03	1.143E+00	7.511E-05	1.143E+00	
2.500E+03	1.145E+00	6.101E-05	1.145E+00	
3.000E+03	1.153E+00	5.148E-05	1.153E+00	
4.000E+03	1.175E+00	3.939E-05	1.175E+00	
5.000E+03	1.199E+00	3.200E-05	1.199E+00	
6.000E+03	1.222E+00	2.701E-05	1.222E+00	
7.000E+03	1.243E+00	2.341E-05	1.243E+00	
8.000E+03	1.262E+00	2.067E-05	1.262E+00	
9.000E+03	1.280E+00	1.853E-05	1.280E+00	
1.000E+04	1.296E+00	1.680E-05	1.296E+00	
