PSTAR: Stopping Powers and Range Tables for Protons

KRYPTON                                                                 

Kinetic  	Electron.	Nuclear  	Total    	
Energy   	Stp. Pow.	Stp. Pow.	Stp. Pow.	
MeV      	MeV cm2/g	MeV cm2/g	MeV cm2/g	

1.000E-03	4.592E+01	2.984E+00	4.890E+01	
1.500E-03	5.624E+01	2.910E+00	5.915E+01	
2.000E-03	6.494E+01	2.820E+00	6.776E+01	
2.500E-03	7.260E+01	2.728E+00	7.533E+01	
3.000E-03	7.953E+01	2.639E+00	8.217E+01	
4.000E-03	9.184E+01	2.477E+00	9.431E+01	
5.000E-03	1.027E+02	2.335E+00	1.050E+02	
6.000E-03	1.125E+02	2.210E+00	1.147E+02	
7.000E-03	1.215E+02	2.101E+00	1.236E+02	
8.000E-03	1.299E+02	2.004E+00	1.319E+02	
9.000E-03	1.378E+02	1.918E+00	1.397E+02	
1.000E-02	1.452E+02	1.840E+00	1.470E+02	
1.250E-02	1.601E+02	1.675E+00	1.618E+02	
1.500E-02	1.732E+02	1.543E+00	1.748E+02	
1.750E-02	1.849E+02	1.433E+00	1.864E+02	
2.000E-02	1.955E+02	1.341E+00	1.968E+02	
2.250E-02	2.051E+02	1.261E+00	2.063E+02	
2.500E-02	2.138E+02	1.192E+00	2.150E+02	
2.750E-02	2.218E+02	1.132E+00	2.229E+02	
3.000E-02	2.291E+02	1.078E+00	2.302E+02	
3.500E-02	2.420E+02	9.863E-01	2.430E+02	
4.000E-02	2.527E+02	9.111E-01	2.536E+02	
4.500E-02	2.616E+02	8.480E-01	2.625E+02	
5.000E-02	2.688E+02	7.941E-01	2.696E+02	
5.500E-02	2.746E+02	7.476E-01	2.753E+02	
6.000E-02	2.790E+02	7.069E-01	2.797E+02	
6.500E-02	2.823E+02	6.709E-01	2.829E+02	
7.000E-02	2.845E+02	6.388E-01	2.851E+02	
7.500E-02	2.858E+02	6.101E-01	2.864E+02	
8.000E-02	2.862E+02	5.841E-01	2.868E+02	
8.500E-02	2.860E+02	5.605E-01	2.865E+02	
9.000E-02	2.851E+02	5.389E-01	2.857E+02	
9.500E-02	2.838E+02	5.192E-01	2.843E+02	
1.000E-01	2.819E+02	5.010E-01	2.824E+02	
1.250E-01	2.686E+02	4.278E-01	2.690E+02	
1.500E-01	2.522E+02	3.749E-01	2.526E+02	
1.750E-01	2.362E+02	3.347E-01	2.365E+02	
2.000E-01	2.217E+02	3.030E-01	2.220E+02	
2.250E-01	2.090E+02	2.773E-01	2.093E+02	
2.500E-01	1.982E+02	2.559E-01	1.984E+02	
2.750E-01	1.889E+02	2.379E-01	1.891E+02	
3.000E-01	1.809E+02	2.224E-01	1.812E+02	
3.500E-01	1.681E+02	1.973E-01	1.683E+02	
4.000E-01	1.581E+02	1.776E-01	1.583E+02	
4.500E-01	1.502E+02	1.618E-01	1.504E+02	
5.000E-01	1.437E+02	1.488E-01	1.438E+02	
5.500E-01	1.381E+02	1.378E-01	1.382E+02	
6.000E-01	1.332E+02	1.285E-01	1.333E+02	
6.500E-01	1.288E+02	1.205E-01	1.289E+02	
7.000E-01	1.248E+02	1.134E-01	1.250E+02	
7.500E-01	1.212E+02	1.072E-01	1.213E+02	
8.000E-01	1.178E+02	1.017E-01	1.179E+02	
8.500E-01	1.146E+02	9.682E-02	1.147E+02	
9.000E-01	1.116E+02	9.238E-02	1.117E+02	
9.500E-01	1.088E+02	8.836E-02	1.089E+02	
1.000E+00	1.061E+02	8.470E-02	1.062E+02	
1.250E+00	9.463E+01	7.041E-02	9.470E+01	
1.500E+00	8.543E+01	6.047E-02	8.549E+01	
1.750E+00	7.791E+01	5.313E-02	7.797E+01	
2.000E+00	7.184E+01	4.747E-02	7.188E+01	
2.250E+00	6.689E+01	4.296E-02	6.693E+01	
2.500E+00	6.269E+01	3.929E-02	6.273E+01	
2.750E+00	5.913E+01	3.622E-02	5.917E+01	
3.000E+00	5.601E+01	3.363E-02	5.604E+01	
3.500E+00	5.073E+01	2.947E-02	5.076E+01	
4.000E+00	4.648E+01	2.626E-02	4.650E+01	
4.500E+00	4.301E+01	2.372E-02	4.304E+01	
5.000E+00	4.007E+01	2.165E-02	4.010E+01	
5.500E+00	3.758E+01	1.992E-02	3.760E+01	
6.000E+00	3.541E+01	1.847E-02	3.543E+01	
6.500E+00	3.351E+01	1.722E-02	3.353E+01	
7.000E+00	3.184E+01	1.614E-02	3.185E+01	
7.500E+00	3.034E+01	1.520E-02	3.036E+01	
8.000E+00	2.900E+01	1.436E-02	2.901E+01	
8.500E+00	2.778E+01	1.361E-02	2.780E+01	
9.000E+00	2.668E+01	1.295E-02	2.669E+01	
9.500E+00	2.567E+01	1.234E-02	2.569E+01	
1.000E+01	2.475E+01	1.180E-02	2.476E+01	
1.250E+01	2.106E+01	9.686E-03	2.107E+01	
1.500E+01	1.843E+01	8.238E-03	1.844E+01	
1.750E+01	1.645E+01	7.181E-03	1.645E+01	
2.000E+01	1.489E+01	6.373E-03	1.489E+01	
2.500E+01	1.260E+01	5.216E-03	1.260E+01	
2.750E+01	1.172E+01	4.787E-03	1.173E+01	
3.000E+01	1.098E+01	4.426E-03	1.099E+01	
3.500E+01	9.776E+00	3.850E-03	9.780E+00	
4.000E+01	8.840E+00	3.411E-03	8.843E+00	
4.500E+01	8.090E+00	3.064E-03	8.093E+00	
5.000E+01	7.475E+00	2.784E-03	7.478E+00	
5.500E+01	6.961E+00	2.552E-03	6.964E+00	
6.000E+01	6.525E+00	2.357E-03	6.527E+00	
6.500E+01	6.149E+00	2.190E-03	6.151E+00	
7.000E+01	5.822E+00	2.046E-03	5.824E+00	
7.500E+01	5.535E+00	1.920E-03	5.536E+00	
8.000E+01	5.280E+00	1.810E-03	5.282E+00	
8.500E+01	5.053E+00	1.711E-03	5.055E+00	
9.000E+01	4.849E+00	1.623E-03	4.851E+00	
9.500E+01	4.665E+00	1.544E-03	4.666E+00	
1.000E+02	4.497E+00	1.473E-03	4.499E+00	
1.250E+02	3.848E+00	1.198E-03	3.849E+00	
1.500E+02	3.402E+00	1.011E-03	3.403E+00	
1.750E+02	3.077E+00	8.760E-04	3.078E+00	
2.000E+02	2.829E+00	7.734E-04	2.830E+00	
2.250E+02	2.634E+00	6.928E-04	2.635E+00	
2.500E+02	2.477E+00	6.278E-04	2.477E+00	
2.750E+02	2.347E+00	5.742E-04	2.348E+00	
3.000E+02	2.239E+00	5.293E-04	2.239E+00	
3.500E+02	2.068E+00	4.580E-04	2.069E+00	
4.000E+02	1.941E+00	4.041E-04	1.941E+00	
4.500E+02	1.842E+00	3.618E-04	1.843E+00	
5.000E+02	1.764E+00	3.277E-04	1.765E+00	
5.500E+02	1.701E+00	2.996E-04	1.702E+00	
6.000E+02	1.650E+00	2.761E-04	1.650E+00	
6.500E+02	1.607E+00	2.561E-04	1.607E+00	
7.000E+02	1.571E+00	2.388E-04	1.572E+00	
7.500E+02	1.541E+00	2.238E-04	1.541E+00	
8.000E+02	1.515E+00	2.107E-04	1.516E+00	
8.500E+02	1.493E+00	1.990E-04	1.493E+00	
9.000E+02	1.474E+00	1.886E-04	1.474E+00	
9.500E+02	1.458E+00	1.793E-04	1.458E+00	
1.000E+03	1.444E+00	1.708E-04	1.444E+00	
1.500E+03	1.372E+00	1.167E-04	1.372E+00	
2.000E+03	1.357E+00	8.915E-05	1.357E+00	
2.500E+03	1.362E+00	7.234E-05	1.362E+00	
3.000E+03	1.375E+00	6.100E-05	1.375E+00	
4.000E+03	1.407E+00	4.662E-05	1.407E+00	
5.000E+03	1.441E+00	3.786E-05	1.441E+00	
6.000E+03	1.473E+00	3.194E-05	1.473E+00	
7.000E+03	1.502E+00	2.766E-05	1.503E+00	
8.000E+03	1.530E+00	2.442E-05	1.530E+00	
9.000E+03	1.554E+00	2.188E-05	1.555E+00	
1.000E+04	1.577E+00	1.983E-05	1.577E+00	
