PSTAR: Stopping Powers and Range Tables for Protons

PLATINUM                                                                

Kinetic  	Electron.	Nuclear  	Total    	
Energy   	Stp. Pow.	Stp. Pow.	Stp. Pow.	
MeV      	MeV cm2/g	MeV cm2/g	MeV cm2/g	

1.000E-03	1.377E+01	9.089E-01	1.468E+01	
1.500E-03	1.687E+01	9.287E-01	1.779E+01	
2.000E-03	1.947E+01	9.334E-01	2.041E+01	
2.500E-03	2.177E+01	9.312E-01	2.270E+01	
3.000E-03	2.385E+01	9.255E-01	2.478E+01	
4.000E-03	2.754E+01	9.087E-01	2.845E+01	
5.000E-03	3.079E+01	8.889E-01	3.168E+01	
6.000E-03	3.373E+01	8.682E-01	3.460E+01	
7.000E-03	3.643E+01	8.478E-01	3.728E+01	
8.000E-03	3.895E+01	8.278E-01	3.978E+01	
9.000E-03	4.131E+01	8.086E-01	4.212E+01	
1.000E-02	4.355E+01	7.903E-01	4.434E+01	
1.250E-02	4.811E+01	7.481E-01	4.886E+01	
1.500E-02	5.216E+01	7.107E-01	5.287E+01	
1.750E-02	5.583E+01	6.775E-01	5.651E+01	
2.000E-02	5.920E+01	6.479E-01	5.985E+01	
2.250E-02	6.232E+01	6.212E-01	6.294E+01	
2.500E-02	6.523E+01	5.971E-01	6.582E+01	
2.750E-02	6.795E+01	5.752E-01	6.852E+01	
3.000E-02	7.051E+01	5.552E-01	7.107E+01	
3.500E-02	7.522E+01	5.199E-01	7.574E+01	
4.000E-02	7.946E+01	4.896E-01	7.995E+01	
4.500E-02	8.330E+01	4.633E-01	8.377E+01	
5.000E-02	8.679E+01	4.402E-01	8.723E+01	
5.500E-02	8.997E+01	4.197E-01	9.039E+01	
6.000E-02	9.287E+01	4.013E-01	9.327E+01	
6.500E-02	9.551E+01	3.848E-01	9.590E+01	
7.000E-02	9.792E+01	3.698E-01	9.829E+01	
7.500E-02	1.001E+02	3.561E-01	1.005E+02	
8.000E-02	1.021E+02	3.436E-01	1.024E+02	
8.500E-02	1.039E+02	3.320E-01	1.042E+02	
9.000E-02	1.055E+02	3.213E-01	1.058E+02	
9.500E-02	1.070E+02	3.114E-01	1.073E+02	
1.000E-01	1.083E+02	3.022E-01	1.086E+02	
1.250E-01	1.127E+02	2.642E-01	1.130E+02	
1.500E-01	1.145E+02	2.357E-01	1.148E+02	
1.750E-01	1.144E+02	2.134E-01	1.146E+02	
2.000E-01	1.130E+02	1.954E-01	1.132E+02	
2.250E-01	1.108E+02	1.805E-01	1.110E+02	
2.500E-01	1.081E+02	1.679E-01	1.083E+02	
2.750E-01	1.053E+02	1.572E-01	1.054E+02	
3.000E-01	1.024E+02	1.479E-01	1.025E+02	
3.500E-01	9.692E+01	1.326E-01	9.706E+01	
4.000E-01	9.212E+01	1.204E-01	9.224E+01	
4.500E-01	8.791E+01	1.104E-01	8.802E+01	
5.000E-01	8.422E+01	1.022E-01	8.432E+01	
5.500E-01	8.097E+01	9.515E-02	8.107E+01	
6.000E-01	7.811E+01	8.912E-02	7.820E+01	
6.500E-01	7.556E+01	8.388E-02	7.564E+01	
7.000E-01	7.326E+01	7.927E-02	7.334E+01	
7.500E-01	7.117E+01	7.519E-02	7.125E+01	
8.000E-01	6.926E+01	7.154E-02	6.933E+01	
8.500E-01	6.750E+01	6.826E-02	6.757E+01	
9.000E-01	6.587E+01	6.530E-02	6.594E+01	
9.500E-01	6.436E+01	6.260E-02	6.442E+01	
1.000E+00	6.294E+01	6.014E-02	6.300E+01	
1.250E+00	5.700E+01	5.043E-02	5.705E+01	
1.500E+00	5.239E+01	4.360E-02	5.243E+01	
1.750E+00	4.867E+01	3.851E-02	4.871E+01	
2.000E+00	4.557E+01	3.456E-02	4.561E+01	
2.250E+00	4.294E+01	3.139E-02	4.297E+01	
2.500E+00	4.066E+01	2.880E-02	4.069E+01	
2.750E+00	3.867E+01	2.662E-02	3.869E+01	
3.000E+00	3.690E+01	2.478E-02	3.693E+01	
3.500E+00	3.391E+01	2.180E-02	3.393E+01	
4.000E+00	3.145E+01	1.950E-02	3.147E+01	
4.500E+00	2.939E+01	1.767E-02	2.941E+01	
5.000E+00	2.763E+01	1.617E-02	2.765E+01	
5.500E+00	2.611E+01	1.492E-02	2.612E+01	
6.000E+00	2.477E+01	1.386E-02	2.478E+01	
6.500E+00	2.359E+01	1.295E-02	2.360E+01	
7.000E+00	2.253E+01	1.216E-02	2.254E+01	
7.500E+00	2.158E+01	1.147E-02	2.159E+01	
8.000E+00	2.072E+01	1.085E-02	2.074E+01	
8.500E+00	1.994E+01	1.030E-02	1.995E+01	
9.000E+00	1.923E+01	9.811E-03	1.924E+01	
9.500E+00	1.857E+01	9.366E-03	1.858E+01	
1.000E+01	1.796E+01	8.961E-03	1.797E+01	
1.250E+01	1.551E+01	7.391E-03	1.552E+01	
1.500E+01	1.373E+01	6.310E-03	1.373E+01	
1.750E+01	1.236E+01	5.517E-03	1.236E+01	
2.000E+01	1.127E+01	4.909E-03	1.128E+01	
2.500E+01	9.646E+00	4.037E-03	9.651E+00	
2.750E+01	9.019E+00	3.712E-03	9.023E+00	
3.000E+01	8.480E+00	3.438E-03	8.484E+00	
3.500E+01	7.599E+00	3.000E-03	7.602E+00	
4.000E+01	6.908E+00	2.665E-03	6.910E+00	
4.500E+01	6.349E+00	2.400E-03	6.352E+00	
5.000E+01	5.888E+00	2.185E-03	5.891E+00	
5.500E+01	5.501E+00	2.007E-03	5.503E+00	
6.000E+01	5.170E+00	1.857E-03	5.172E+00	
6.500E+01	4.884E+00	1.728E-03	4.886E+00	
7.000E+01	4.635E+00	1.617E-03	4.636E+00	
7.500E+01	4.415E+00	1.520E-03	4.416E+00	
8.000E+01	4.219E+00	1.434E-03	4.221E+00	
8.500E+01	4.044E+00	1.358E-03	4.046E+00	
9.000E+01	3.887E+00	1.290E-03	3.888E+00	
9.500E+01	3.744E+00	1.228E-03	3.746E+00	
1.000E+02	3.615E+00	1.173E-03	3.616E+00	
1.250E+02	3.109E+00	9.581E-04	3.110E+00	
1.500E+02	2.759E+00	8.118E-04	2.760E+00	
1.750E+02	2.503E+00	7.053E-04	2.503E+00	
2.000E+02	2.306E+00	6.242E-04	2.307E+00	
2.250E+02	2.151E+00	5.604E-04	2.152E+00	
2.500E+02	2.026E+00	5.087E-04	2.027E+00	
2.750E+02	1.923E+00	4.660E-04	1.923E+00	
3.000E+02	1.836E+00	4.301E-04	1.837E+00	
3.500E+02	1.700E+00	3.731E-04	1.700E+00	
4.000E+02	1.597E+00	3.298E-04	1.598E+00	
4.500E+02	1.518E+00	2.957E-04	1.518E+00	
5.000E+02	1.455E+00	2.682E-04	1.456E+00	
5.500E+02	1.405E+00	2.455E-04	1.405E+00	
6.000E+02	1.363E+00	2.265E-04	1.364E+00	
6.500E+02	1.329E+00	2.103E-04	1.329E+00	
7.000E+02	1.300E+00	1.963E-04	1.300E+00	
7.500E+02	1.276E+00	1.841E-04	1.276E+00	
8.000E+02	1.255E+00	1.733E-04	1.255E+00	
8.500E+02	1.237E+00	1.638E-04	1.237E+00	
9.000E+02	1.222E+00	1.553E-04	1.222E+00	
9.500E+02	1.208E+00	1.477E-04	1.208E+00	
1.000E+03	1.197E+00	1.408E-04	1.197E+00	
1.500E+03	1.139E+00	9.652E-05	1.139E+00	
2.000E+03	1.126E+00	7.383E-05	1.126E+00	
2.500E+03	1.129E+00	5.997E-05	1.129E+00	
3.000E+03	1.138E+00	5.061E-05	1.138E+00	
4.000E+03	1.161E+00	3.873E-05	1.161E+00	
5.000E+03	1.185E+00	3.147E-05	1.185E+00	
6.000E+03	1.208E+00	2.656E-05	1.208E+00	
7.000E+03	1.229E+00	2.302E-05	1.229E+00	
8.000E+03	1.248E+00	2.033E-05	1.248E+00	
9.000E+03	1.265E+00	1.822E-05	1.265E+00	
1.000E+04	1.281E+00	1.652E-05	1.281E+00	
